# Time (s),Altitude (ft),Vertical velocity (ft/s),Vertical acceleration (ft/s²),Mach number (​),Drag coefficient (​)
0.01,-0.001,-0.115,-11.489,0.005,0.594
0.02,0.001,0.293,29.303,0.005,0.593
0.03,0.008,1,70.676,0.005,0.591
0.04,0.024,2.154,115.468,0.006,0.584
0.05,0.053,3.762,160.848,0.006,0.572
0.06,0.1,5.598,183.591,0.008,0.557
0.07,0.165,7.434,183.66,0.009,0.543
0.08,0.249,9.27,183.59,0.01,0.53
0.09,0.351,11.096,182.683,0.012,0.519
0.1,0.471,12.912,181.636,0.013,0.509
0.11,0.609,14.718,180.587,0.015,0.501
0.12,0.765,16.513,179.538,0.016,0.493
0.13,0.939,18.294,178.098,0.018,0.487
0.14,1.131,20.037,174.336,0.019,0.481
0.15,1.339,21.738,170.185,0.021,0.476
0.16,1.565,23.398,166.032,0.022,0.471
0.17,1.807,25.017,161.876,0.024,0.467
0.18,2.065,26.594,157.717,0.025,0.463
0.19,2.339,28.129,153.556,0.026,0.46
0.2,2.628,29.623,149.392,0.028,0.457
0.21,2.931,31.094,147.171,0.029,0.454
0.22,3.25,32.563,146.899,0.03,0.451
0.23,3.582,34.029,146.626,0.031,0.449
0.24,3.93,35.492,146.353,0.033,0.446
0.25,4.292,36.953,146.08,0.034,0.444
0.26,4.669,38.411,145.806,0.035,0.442
0.27,5.061,39.866,145.533,0.037,0.44
0.28,5.466,41.318,145.258,0.038,0.438
0.29,5.887,42.768,144.984,0.039,0.436
0.3,6.322,44.215,144.709,0.041,0.434
0.31,6.771,45.659,144.433,0.042,0.433
0.32,7.235,47.1,144.158,0.043,0.431
0.33,7.713,48.539,143.882,0.044,0.43
0.34,8.206,49.975,143.605,0.046,0.428
0.35,8.713,51.408,143.329,0.047,0.427
0.36,9.234,52.838,143.051,0.048,0.426
0.37,9.769,54.266,142.774,0.05,0.424
0.38,10.319,55.69,142.496,0.051,0.423
0.39,10.883,57.112,142.218,0.052,0.422
0.4,11.461,58.532,141.94,0.053,0.421
0.41,12.054,59.948,141.661,0.055,0.42
0.425,12.969,62.065,141.136,0.056,0.418
0.448,14.401,65.228,140.627,0.059,0.416
0.481,16.682,69.948,139.858,0.064,0.413
0.531,20.353,76.892,138.951,0.07,0.409
0.581,24.371,83.824,138.724,0.076,0.405
0.631,28.736,90.765,138.888,0.082,0.402
0.681,33.449,97.772,140.21,0.089,0.399
0.731,38.515,104.851,141.633,0.095,0.396
0.781,43.936,111.996,142.967,0.101,0.394
0.831,49.715,119.194,143.991,0.108,0.392
0.881,55.856,126.44,144.968,0.114,0.39
0.931,62.361,133.735,145.925,0.121,0.388
0.981,69.231,141.077,146.856,0.128,0.388
1.031,76.469,148.464,147.732,0.134,0.388
1.081,84.078,155.888,148.467,0.141,0.389
1.131,92.059,163.348,149.163,0.148,0.39
1.181,100.414,170.841,149.832,0.155,0.39
1.231,109.144,178.368,150.476,0.161,0.391
1.281,118.252,185.946,151.512,0.168,0.392
1.331,127.742,193.653,154.069,0.175,0.393
1.381,137.621,201.495,156.764,0.183,0.394
1.431,147.895,209.472,159.46,0.19,0.394
1.481,158.571,217.583,162.171,0.197,0.395
1.531,169.657,225.83,164.901,0.205,0.396
1.581,181.158,234.211,167.596,0.213,0.398
1.631,193.081,242.727,170.339,0.22,0.399
1.681,205.434,251.383,173.145,0.228,0.4
1.731,218.223,260.18,176.017,0.236,0.401
1.781,231.455,269.103,178.567,0.245,0.403
1.831,245.135,278.082,179.704,0.253,0.404
1.881,259.264,287.112,180.721,0.261,0.406
1.931,273.847,296.193,181.734,0.269,0.407
1.981,288.885,305.323,182.723,0.278,0.409
2.031,304.381,314.503,183.676,0.286,0.411
2.081,320.336,323.73,184.589,0.295,0.412
2.131,336.755,333.001,185.417,0.303,0.414
2.181,353.637,342.311,186.142,0.312,0.416
2.231,370.987,351.654,186.758,0.32,0.418
2.281,388.803,360.99,186.555,0.329,0.42
2.331,407.082,370.18,183.604,0.337,0.422
2.381,425.817,379.209,180.34,0.345,0.424
2.431,444.999,388.073,177.06,0.353,0.427
2.481,464.62,396.774,173.822,0.361,0.429
2.531,484.673,405.315,170.649,0.369,0.431
2.581,505.148,413.696,167.54,0.377,0.433
2.631,526.039,421.926,164.557,0.385,0.435
2.681,547.337,430.008,161.67,0.392,0.438
2.731,569.036,437.948,158.816,0.4,0.44
2.781,591.128,445.754,156.116,0.407,0.442
2.831,613.609,453.46,154.071,0.414,0.445
2.881,636.472,461.064,151.956,0.421,0.447
2.931,659.712,468.558,149.68,0.428,0.449
2.981,683.325,475.934,147.253,0.434,0.452
3.031,707.302,483.16,144.205,0.441,0.454
3.081,731.635,490.138,139.233,0.448,0.456
3.131,756.31,496.86,134.147,0.454,0.459
3.181,781.315,503.33,129.212,0.46,0.461
3.231,806.637,509.558,124.46,0.466,0.463
3.281,832.265,515.554,119.869,0.471,0.466
3.331,858.187,521.329,115.451,0.477,0.468
3.381,884.392,526.882,111.006,0.482,0.47
3.431,910.87,532.21,106.44,0.487,0.472
3.481,937.608,537.306,101.713,0.492,0.474
3.531,964.591,542.022,94.032,0.496,0.476
3.581,991.787,545.829,75.86,0.499,0.478
3.631,1019.15,548.678,56.77,0.502,0.479
3.681,1046.632,550.578,37.861,0.504,0.48
3.731,1074.184,551.537,19.185,0.505,0.48
3.781,1101.764,551.635,2.038,0.505,0.48
3.831,1129.333,551.129,-9.975,0.505,0.48
3.881,1156.862,550.048,-21.473,0.504,0.48
3.931,1184.323,548.391,-33.004,0.503,0.479
3.981,1211.687,546.156,-44.595,0.501,0.478
4,1221.918,545.168,-52.652,0.5,0.478
4.028,1237.229,543.626,-54.772,0.498,0.477
4.07,1260.114,541.318,-54.658,0.496,0.476
4.12,1287.112,538.588,-54.532,0.494,0.475
4.17,1313.973,535.865,-54.364,0.492,0.474
4.22,1340.699,533.152,-54.111,0.489,0.473
4.27,1367.289,530.455,-53.765,0.487,0.472
4.32,1393.745,527.777,-53.36,0.484,0.471
4.37,1420.067,525.12,-52.945,0.482,0.47
4.42,1446.257,522.482,-52.569,0.48,0.469
4.47,1472.315,519.862,-52.264,0.478,0.468
4.52,1498.243,517.255,-52.037,0.475,0.467
4.57,1524.041,514.657,-51.875,0.473,0.466
4.62,1549.709,512.067,-51.744,0.471,0.465
4.67,1575.248,509.482,-51.607,0.468,0.464
4.72,1600.657,506.906,-51.428,0.466,0.463
4.77,1625.938,504.34,-51.188,0.464,0.463
4.82,1651.092,501.788,-50.892,0.462,0.462
4.87,1676.118,499.252,-50.562,0.459,0.461
4.92,1701.017,496.732,-50.231,0.457,0.46
4.97,1725.791,494.228,-49.928,0.455,0.459
5.02,1750.44,491.739,-49.673,0.453,0.458
5.07,1774.965,489.26,-49.471,0.451,0.458
5.12,1799.366,486.791,-49.315,0.448,0.457
5.17,1823.644,484.329,-49.184,0.446,0.456
5.22,1847.799,481.872,-49.055,0.444,0.455
5.27,1871.832,479.423,-48.905,0.442,0.454
5.32,1895.742,476.982,-48.719,0.44,0.454
5.37,1919.53,474.552,-48.491,0.438,0.453
5.42,1943.197,472.134,-48.233,0.436,0.452
5.47,1966.744,469.729,-47.963,0.433,0.451
5.52,1990.17,467.337,-47.7,0.431,0.45
5.57,2013.478,464.959,-47.461,0.429,0.45
5.62,2036.666,462.591,-47.256,0.427,0.449
5.67,2059.737,460.232,-47.088,0.425,0.448
5.72,2082.69,457.882,-46.948,0.423,0.448
5.77,2105.525,455.537,-46.825,0.421,0.447
5.82,2128.244,453.199,-46.704,0.419,0.446
5.87,2150.845,450.867,-46.569,0.417,0.446
5.92,2173.33,448.542,-46.412,0.415,0.445
5.97,2195.7,446.226,-46.227,0.413,0.444
6.02,2217.953,443.92,-46.021,0.411,0.443
6.07,2240.092,441.624,-45.802,0.409,0.443
6.12,2262.116,439.34,-45.584,0.407,0.442
6.17,2284.026,437.066,-45.377,0.405,0.442
6.22,2305.822,434.802,-45.191,0.403,0.441
6.27,2327.506,432.546,-45.028,0.401,0.44
6.32,2349.077,430.299,-44.889,0.399,0.44
6.37,2370.536,428.057,-44.767,0.397,0.439
6.42,2391.883,425.822,-44.655,0.395,0.438
6.47,2413.118,423.592,-44.542,0.393,0.438
6.52,2434.242,421.368,-44.421,0.391,0.437
6.57,2455.255,419.15,-44.285,0.389,0.437
6.62,2476.157,416.939,-44.132,0.387,0.436
6.67,2496.949,414.737,-43.964,0.385,0.435
6.72,2517.631,412.543,-43.787,0.383,0.435
6.77,2538.204,410.358,-43.608,0.381,0.434
6.82,2558.667,408.182,-43.434,0.379,0.434
6.87,2579.022,406.015,-43.272,0.377,0.433
6.92,2599.269,403.855,-43.124,0.375,0.433
6.97,2619.408,401.702,-42.993,0.374,0.432
7.02,2639.439,399.555,-42.876,0.372,0.432
7.07,2659.363,397.414,-42.77,0.37,0.431
7.12,2679.181,395.278,-42.668,0.368,0.43
7.17,2698.891,393.147,-42.567,0.366,0.43
7.22,2718.495,391.022,-42.46,0.364,0.429
7.27,2737.994,388.902,-42.343,0.362,0.429
7.32,2757.386,386.787,-42.217,0.36,0.428
7.37,2776.672,384.68,-42.08,0.359,0.428
7.42,2795.854,382.58,-41.937,0.357,0.427
7.47,2814.93,380.486,-41.791,0.355,0.427
7.52,2833.903,378.4,-41.647,0.353,0.426
7.57,2852.771,376.322,-41.508,0.351,0.426
7.62,2871.535,374.25,-41.378,0.349,0.425
7.67,2890.196,372.184,-41.258,0.348,0.425
7.72,2908.753,370.124,-41.149,0.346,0.424
7.77,2927.208,368.069,-41.048,0.344,0.424
7.82,2945.56,366.019,-40.955,0.342,0.424
7.87,2963.81,363.973,-40.865,0.34,0.423
7.92,2981.958,361.932,-40.775,0.339,0.423
7.97,3000.003,359.896,-40.683,0.337,0.422
8.02,3017.947,357.864,-40.586,0.335,0.422
8.07,3035.79,355.837,-40.482,0.333,0.421
8.12,3053.531,353.816,-40.372,0.331,0.421
8.17,3071.172,351.8,-40.258,0.33,0.42
8.22,3088.711,349.79,-40.14,0.328,0.42
8.27,3106.151,347.786,-40.021,0.326,0.42
8.32,3123.49,345.788,-39.905,0.324,0.419
8.37,3140.73,343.796,-39.792,0.323,0.419
8.42,3157.87,341.809,-39.685,0.321,0.418
8.47,3174.911,339.827,-39.585,0.319,0.418
8.52,3191.852,337.85,-39.491,0.317,0.417
8.57,3208.696,335.878,-39.404,0.316,0.417
8.62,3225.44,333.91,-39.322,0.314,0.417
8.67,3242.087,331.946,-39.243,0.312,0.416
8.72,3258.635,329.985,-39.165,0.311,0.416
8.77,3275.085,328.029,-39.087,0.309,0.416
8.82,3291.438,326.077,-39.007,0.307,0.415
8.87,3307.693,324.128,-38.924,0.305,0.415
8.92,3323.851,322.184,-38.837,0.304,0.414
8.97,3339.911,320.245,-38.747,0.302,0.414
9.02,3355.875,318.31,-38.654,0.3,0.414
9.07,3371.743,316.379,-38.559,0.299,0.413
9.12,3387.513,314.454,-38.464,0.297,0.413
9.17,3403.188,312.533,-38.369,0.295,0.413
9.22,3418.767,310.617,-38.277,0.294,0.412
9.27,3434.25,308.705,-38.188,0.292,0.412
9.32,3449.637,306.798,-38.102,0.29,0.411
9.37,3464.93,304.895,-38.021,0.289,0.411
9.42,3480.127,302.996,-37.944,0.287,0.411
9.47,3495.229,301.1,-37.871,0.285,0.41
9.52,3510.237,299.209,-37.801,0.284,0.41
9.57,3525.15,297.32,-37.734,0.282,0.41
9.62,3539.969,295.435,-37.667,0.28,0.409
9.67,3554.694,293.554,-37.602,0.279,0.409
9.72,3569.324,291.675,-37.535,0.277,0.409
9.77,3583.861,289.8,-37.467,0.275,0.408
9.82,3598.305,287.928,-37.398,0.274,0.408
9.87,3612.654,286.06,-37.327,0.272,0.408
9.92,3626.911,284.196,-37.254,0.271,0.407
9.97,3641.074,282.335,-37.179,0.269,0.407
10.02,3655.144,280.478,-37.103,0.267,0.407
10.07,3669.122,278.625,-37.028,0.266,0.407
10.12,3683.007,276.775,-36.952,0.264,0.406
10.17,3696.799,274.929,-36.878,0.263,0.406
10.22,3710.5,273.087,-36.805,0.261,0.406
10.27,3724.108,271.249,-36.734,0.259,0.405
10.32,3737.625,269.414,-36.666,0.258,0.405
10.37,3751.05,267.582,-36.6,0.256,0.405
10.42,3764.383,265.754,-36.538,0.255,0.404
10.47,3777.625,263.928,-36.477,0.253,0.404
10.52,3790.776,262.106,-36.419,0.251,0.404
10.57,3803.836,260.287,-36.362,0.25,0.404
10.62,3816.805,258.47,-36.307,0.248,0.403
10.67,3829.683,256.656,-36.252,0.247,0.403
10.72,3842.47,254.845,-36.198,0.245,0.403
10.77,3855.167,253.036,-36.143,0.244,0.403
10.82,3867.774,251.23,-36.088,0.242,0.402
10.87,3880.29,249.427,-36.033,0.241,0.402
10.92,3892.717,247.627,-35.976,0.239,0.402
10.97,3905.053,245.83,-35.919,0.237,0.402
11.02,3917.3,244.035,-35.861,0.236,0.401
11.07,3929.457,242.244,-35.802,0.234,0.401
11.12,3941.524,240.455,-35.743,0.233,0.401
11.17,3953.502,238.669,-35.684,0.231,0.4
11.22,3965.391,236.887,-35.625,0.23,0.4
11.27,3977.191,235.107,-35.567,0.228,0.4
11.32,3988.902,233.33,-35.51,0.227,0.4
11.37,4000.524,231.556,-35.454,0.225,0.4
11.42,4012.057,229.784,-35.4,0.224,0.399
11.47,4023.502,228.016,-35.347,0.222,0.399
11.52,4034.859,226.25,-35.296,0.221,0.399
11.57,4046.127,224.486,-35.246,0.219,0.399
11.62,4057.308,222.725,-35.198,0.218,0.398
11.67,4068.4,220.966,-35.151,0.216,0.398
11.72,4079.404,219.21,-35.105,0.215,0.398
11.77,4090.321,217.456,-35.06,0.213,0.398
11.82,4101.15,215.704,-35.017,0.212,0.397
11.87,4111.891,213.954,-34.973,0.21,0.397
11.92,4122.545,212.207,-34.93,0.209,0.397
11.97,4133.112,210.461,-34.887,0.207,0.397
12.02,4143.592,208.718,-34.845,0.206,0.397
12.07,4153.984,206.977,-34.802,0.204,0.396
12.12,4164.289,205.238,-34.758,0.203,0.396
12.17,4174.508,203.501,-34.715,0.201,0.396
12.22,4184.639,201.766,-34.671,0.2,0.396
12.27,4194.684,200.034,-34.627,0.198,0.396
12.32,4204.643,198.304,-34.583,0.197,0.395
12.37,4214.515,196.576,-34.539,0.196,0.395
12.42,4224.3,194.85,-34.495,0.194,0.395
12.47,4234,193.126,-34.451,0.193,0.395
12.52,4243.613,191.405,-34.407,0.191,0.395
12.57,4253.14,189.685,-34.364,0.19,0.394
12.62,4262.582,187.968,-34.321,0.188,0.394
12.67,4271.937,186.253,-34.279,0.187,0.394
12.72,4281.207,184.54,-34.238,0.185,0.394
12.77,4290.391,182.829,-34.198,0.184,0.394
12.82,4299.49,181.12,-34.158,0.183,0.393
12.87,4308.503,179.413,-34.12,0.181,0.393
12.92,4317.431,177.708,-34.082,0.18,0.393
12.97,4326.274,176.005,-34.045,0.178,0.393
13.02,4335.032,174.304,-34.009,0.177,0.393
13.07,4343.705,172.604,-33.974,0.176,0.393
13.12,4352.292,170.906,-33.94,0.174,0.392
13.17,4360.795,169.21,-33.906,0.173,0.392
13.22,4369.213,167.516,-33.873,0.171,0.392
13.27,4377.547,165.823,-33.84,0.17,0.392
13.32,4385.796,164.132,-33.808,0.169,0.392
13.37,4393.96,162.442,-33.776,0.167,0.392
13.42,4402.04,160.754,-33.744,0.166,0.391
13.47,4410.036,159.068,-33.712,0.165,0.391
13.52,4417.947,157.383,-33.681,0.163,0.391
13.57,4425.774,155.7,-33.649,0.162,0.391
13.62,4433.517,154.018,-33.618,0.16,0.391
13.67,4441.176,152.338,-33.587,0.159,0.391
13.72,4448.751,150.659,-33.556,0.158,0.391
13.77,4456.242,148.982,-33.524,0.156,0.39
13.82,4463.649,147.307,-33.493,0.155,0.39
13.87,4470.972,145.633,-33.462,0.154,0.39
13.92,4478.212,143.961,-33.431,0.152,0.39
13.97,4485.369,142.29,-33.4,0.151,0.39
14.02,4492.441,140.621,-33.37,0.15,0.39
14.07,4499.431,138.953,-33.339,0.149,0.39
14.12,4506.337,137.287,-33.309,0.147,0.389
14.17,4513.159,135.622,-33.279,0.146,0.389
14.22,4519.899,133.959,-33.249,0.145,0.389
14.27,4526.555,132.297,-33.219,0.143,0.389
14.32,4533.129,130.637,-33.19,0.142,0.389
14.37,4539.619,128.978,-33.162,0.141,0.389
14.42,4546.026,127.321,-33.135,0.139,0.389
14.47,4552.351,125.665,-33.108,0.138,0.39
14.52,4558.593,124.01,-33.082,0.137,0.39
14.57,4564.752,122.357,-33.055,0.136,0.39
14.62,4570.829,120.704,-33.03,0.134,0.39
14.67,4576.823,119.054,-33.004,0.133,0.391
14.72,4582.734,117.404,-32.979,0.132,0.391
14.77,4588.563,115.756,-32.955,0.131,0.391
14.82,4594.31,114.109,-32.93,0.13,0.391
14.87,4599.974,112.463,-32.906,0.128,0.392
14.92,4605.556,110.818,-32.883,0.127,0.392
14.97,4611.056,109.174,-32.859,0.126,0.392
15.02,4616.473,107.532,-32.836,0.125,0.393
15.07,4621.809,105.891,-32.813,0.123,0.393
15.12,4627.062,104.251,-32.791,0.122,0.393
15.17,4632.234,102.612,-32.768,0.121,0.394
15.22,4637.324,100.974,-32.746,0.12,0.394
15.27,4642.331,99.337,-32.724,0.119,0.394
15.32,4647.257,97.701,-32.702,0.118,0.394
15.37,4652.102,96.067,-32.68,0.117,0.395
15.42,4656.864,94.433,-32.658,0.115,0.395
15.47,4661.545,92.801,-32.637,0.114,0.395
15.52,4666.144,91.17,-32.615,0.113,0.396
15.57,4670.662,89.539,-32.593,0.112,0.396
15.62,4675.098,87.91,-32.572,0.111,0.396
15.67,4679.453,86.282,-32.55,0.11,0.397
15.72,4683.726,84.655,-32.529,0.109,0.397
15.77,4687.918,83.029,-32.507,0.108,0.397
15.82,4692.029,81.405,-32.486,0.107,0.398
15.87,4696.059,79.781,-32.464,0.106,0.398
15.92,4700.007,78.158,-32.443,0.105,0.399
15.97,4703.875,76.537,-32.421,0.104,0.399
16.02,4707.661,74.916,-32.4,0.103,0.399
16.07,4711.366,73.297,-32.378,0.102,0.4
16.12,4714.991,71.678,-32.357,0.101,0.4
16.17,4718.534,70.061,-32.335,0.1,0.4
16.22,4721.997,68.445,-32.314,0.099,0.401
16.27,4725.379,66.83,-32.292,0.098,0.401
16.32,4728.68,65.216,-32.271,0.097,0.401
16.37,4731.9,63.603,-32.249,0.096,0.402
16.42,4735.04,61.991,-32.228,0.095,0.402
16.47,4738.099,60.38,-32.207,0.094,0.402
16.52,4741.078,58.77,-32.186,0.093,0.403
16.57,4743.976,57.161,-32.164,0.092,0.403
16.62,4746.794,55.553,-32.143,0.091,0.404
16.67,4749.532,53.947,-32.122,0.091,0.404
16.72,4752.189,52.341,-32.101,0.09,0.404
16.77,4754.766,50.737,-32.08,0.089,0.405
16.82,4757.263,49.133,-32.06,0.088,0.405
16.87,4759.679,47.531,-32.039,0.087,0.405
16.92,4762.016,45.929,-32.019,0.087,0.406
16.97,4764.272,44.329,-31.998,0.086,0.406
17.02,4766.449,42.729,-31.978,0.085,0.406
17.07,4768.545,41.131,-31.958,0.085,0.407
17.12,4770.562,39.534,-31.939,0.084,0.407
17.17,4772.499,37.937,-31.919,0.083,0.407
17.22,4774.355,36.342,-31.9,0.083,0.408
17.27,4776.133,34.747,-31.882,0.082,0.408
17.32,4777.83,33.153,-31.863,0.082,0.408
17.37,4779.448,31.561,-31.845,0.081,0.408
17.42,4780.986,29.969,-31.828,0.08,0.409
17.47,4782.445,28.378,-31.811,0.08,0.409
17.52,4783.824,26.788,-31.794,0.079,0.409
17.57,4785.124,25.199,-31.778,0.079,0.41
17.62,4786.344,23.61,-31.763,0.079,0.41
17.67,4787.485,22.022,-31.748,0.078,0.41
17.72,4788.546,20.435,-31.735,0.078,0.41
17.77,4789.528,18.849,-31.722,0.077,0.41
17.82,4790.431,17.263,-31.71,0.077,0.411
17.87,4791.255,15.678,-31.698,0.077,0.411
17.92,4791.999,14.093,-31.688,0.076,0.411
17.97,4792.664,12.509,-31.679,0.076,0.411
18.02,4793.25,10.925,-31.672,0.076,0.411
18.07,4793.756,9.342,-31.665,0.076,0.411
18.12,4794.184,7.759,-31.66,0.076,0.411
18.17,4794.532,6.176,-31.656,0.075,0.411
18.22,4794.802,4.593,-31.654,0.075,0.412
18.27,4794.992,3.01,-31.653,0.075,0.412
18.32,4795.103,1.428,-31.653,0.075,0.412
18.37,4795.134,-0.155,-31.656,0.075,0.412
18.42,4795.087,-1.738,-31.66,0.075,0.412
18.425,4795.078,-1.892,-31.871,0.075,NaN
18.925,4790.151,-17.816,-31.849,0.075,NaN
19.425,4777.533,-32.655,-29.678,0.072,NaN
19.925,4757.749,-46.481,-27.651,0.071,NaN
20.425,4731.316,-59.251,-25.54,0.074,NaN
20.925,4698.783,-70.881,-23.26,0.078,NaN
21.425,4660.739,-81.297,-20.832,0.083,NaN
21.925,4617.799,-90.464,-18.334,0.088,NaN
22.425,4570.584,-98.395,-15.863,0.093,NaN
22.925,4519.698,-105.148,-13.506,0.098,NaN
23.425,4465.707,-110.815,-11.332,0.102,NaN
23.925,4409.127,-115.506,-9.384,0.106,NaN
24.425,4350.414,-119.345,-7.678,0.109,NaN
24.925,4289.964,-122.453,-6.215,0.112,NaN
25.425,4228.115,-124.944,-4.982,0.114,NaN
25.925,4165.148,-126.922,-3.956,0.115,NaN
26.425,4101.298,-128.479,-3.113,0.117,NaN
26.925,4036.755,-129.692,-2.426,0.118,NaN
27.425,3971.676,-130.627,-1.871,0.119,NaN
27.925,3906.184,-131.34,-1.425,0.119,NaN
28.425,3840.38,-131.874,-1.069,0.12,NaN
28.925,3774.345,-132.267,-0.786,0.12,NaN
29.425,3708.141,-132.548,-0.561,0.12,NaN
29.925,3641.819,-132.74,-0.384,0.121,NaN
30.425,3575.418,-132.862,-0.244,0.121,NaN
30.925,3508.971,-132.93,-0.135,0.121,NaN
31.425,3442.5,-132.954,-0.049,0.121,NaN
31.925,3376.025,-132.945,0.019,0.121,NaN
32.425,3309.562,-132.909,0.071,0.121,NaN
32.925,3243.121,-132.853,0.112,0.12,NaN
33.425,3176.713,-132.78,0.146,0.12,NaN
33.925,3110.344,-132.693,0.174,0.12,NaN
34.425,3044.022,-132.596,0.195,0.12,NaN
34.925,2977.751,-132.49,0.211,0.12,NaN
35.425,2911.534,-132.378,0.224,0.12,NaN
35.925,2845.374,-132.262,0.233,0.12,NaN
36.425,2779.273,-132.142,0.24,0.12,NaN
36.925,2713.233,-132.019,0.245,0.12,NaN
37.425,2647.254,-131.894,0.249,0.119,NaN
37.925,2581.339,-131.769,0.252,0.119,NaN
38.425,2515.486,-131.642,0.253,0.119,NaN
38.925,2449.697,-131.515,0.254,0.119,NaN
39.425,2383.971,-131.387,0.255,0.119,NaN
39.925,2318.309,-131.26,0.255,0.119,NaN
40.425,2252.711,-131.133,0.255,0.119,NaN
40.925,2187.177,-131.005,0.254,0.118,NaN
41.425,2121.706,-130.879,0.254,0.118,NaN
41.925,2056.298,-130.752,0.253,0.118,NaN
42.425,1990.953,-130.626,0.252,0.118,NaN
42.925,1925.672,-130.5,0.251,0.118,NaN
43.425,1860.453,-130.375,0.25,0.118,NaN
43.925,1795.296,-130.251,0.249,0.118,NaN
44.425,1730.202,-130.127,0.248,0.117,NaN
44.925,1665.17,-130.003,0.247,0.117,NaN
45.425,1600.199,-129.88,0.246,0.117,NaN
45.925,1535.29,-129.756,0.247,0.117,NaN
46.425,1470.443,-129.632,0.249,0.117,NaN
46.925,1405.658,-129.507,0.25,0.117,NaN
47.425,1340.936,-129.381,0.251,0.117,NaN
47.925,1276.277,-129.256,0.251,0.116,NaN
48.425,1211.68,-129.13,0.251,0.116,NaN
48.925,1147.147,-129.005,0.251,0.116,NaN
49.425,1082.676,-128.88,0.25,0.116,NaN
49.925,1018.267,-128.755,0.249,0.116,NaN
50.425,953.92,-128.631,0.248,0.116,NaN
50.925,889.636,-128.507,0.247,0.116,NaN
51.425,825.413,-128.384,0.246,0.115,NaN
51.925,761.252,-128.261,0.245,0.115,NaN
52.425,697.151,-128.139,0.244,0.115,NaN
52.925,633.112,-128.018,0.243,0.115,NaN
53.425,569.133,-127.897,0.242,0.115,NaN
53.925,505.215,-127.776,0.241,0.115,NaN
54.425,441.357,-127.656,0.24,0.115,NaN
54.426,441.231,-125.355,2301.629,0.114,NaN
54.427,441.106,-123.136,2218.241,0.112,NaN
54.428,440.984,-120.997,2139.309,0.11,NaN
54.429,440.864,-118.932,2064.521,0.109,NaN
54.43,440.747,-116.939,1993.591,0.107,NaN
54.431,440.631,-115.013,1926.255,0.105,NaN
54.432,440.516,-113.15,1862.274,0.103,NaN
